108.20052146911621
91.77960270643234
85.95951515436172
83.07908681035042
82.36534848809242
85.2810201048851
86.43370962142944
87.47546425461769
87.78645157814026
92.75693759322166
93.6013871729374
96.6291031241417
96.5383543074131
99.68471011519432
99.69627052545547
101.33288508653641
101.27203696966171
100.47064542770386
103.09356233477592
103.48753064870834
106.19362151622772
106.61149877309799
106.97003418207169
105.90345305204391
106.31831461191177
106.69080746173859
105.72998929023743
106.02454340457916
105.77971708774567
107.13827753067017
105.47616124153137
107.82695984840393
109.97739088535309
108.89848202466965
107.85228097438812
107.77726191282272
108.93172669410706
110.21055483818054
109.09473621845245
110.78844374418259
111.22360289096832
110.35585409402847
111.78853952884674
111.41961735486984
109.67599391937256
109.64068031311035
106.98518687486649
108.93772214651108
109.06102257966995
109.35799729824066
111.08980405330658
108.58136928081512
110.48520430922508
111.89762681722641
111.44597017765045
111.66142517328262
113.87593340873718
114.26356369256973
112.44686192274094
114.61131131649017
113.71515053510666
105.18140411376953
86.17930033802986
86.2013148367405
81.19259950518608
77.88287994265556
75.37904104590416
78.1541415154934
82.77771404385567
85.65834760665894
93.18086478114128
95.80621489882469
98.50581327080727
100.58107706904411
102.66615951061249
104.45112454891205
104.56423884630203
106.59955722093582
106.35583209991455
107.06082600355148
107.22531640529633
105.865305185318
107.49092841148376
107.3675103187561
107.05303180217743
110.54174172878265
110.32954359054565
111.0539875626564
110.22101897001266
110.95775729417801
111.83148264884949
111.97936820983887
111.90212374925613
110.01961195468903
111.91741406917572
110.7176582813263
111.83410608768463
112.38473385572433
112.49749052524567
110.07681202888489
111.71168345212936
108.80845010280609
113.43698400259018
111.88615900278091
111.36868292093277
109.06219059228897
108.34472215175629
110.81245994567871
107.4808240532875
111.11522215604782
107.45981991291046
108.12326622009277
110.81712120771408
111.97202771902084
113.91160011291504
110.64335060119629
110.72950172424316
111.2495641708374
114.24770671129227
109.4066755771637
110.4873559474945
110.82631474733353
108.45952248573303
112.0527783036232
109.82521963119507
113.80185681581497
111.33331596851349
112.76127934455872
113.15422034263611
109.34367996454239
112.39179784059525
111.13100326061249
110.92464005947113
109.36431044340134
112.95034527778625
111.29616844654083
112.34760439395905
111.32259106636047
110.86796170473099
112.38111281394958
106.6004763841629
111.38634014129639
107.1439499258995
108.14742583036423
111.16609621047974
114.08001983165741
111.52921575307846
112.73104029893875
111.88881522417068
111.62976235151291
112.54162806272507
112.71849703788757
110.99192547798157
111.14302414655685
109.69161432981491
119.16301161050797
113.57135474681854
113.27313995361328
111.23410505056381
110.22835773229599
114.12891030311584
116.84376966953278
112.72001564502716
111.72130393981934
110.93147933483124
110.87819331884384
108.98056083917618
111.64563083648682
108.81309396028519
116.89868348836899
107.45763057470322
108.9399162530899
112.2903066277504
111.06176686286926
110.20708629488945
108.15036791563034
111.79311674833298
112.34563201665878
113.62834721803665
109.550028860569
110.88874769210815
109.18916767835617
113.75661092996597
110.2098331451416
109.60697221755981
113.31795185804367
111.74755883216858
113.93569684028625
109.91062319278717
112.88794440031052
110.89309924840927
110.69410455226898
108.79531568288803
110.44854003190994
112.08836609125137
109.73940259218216
111.51176106929779
106.8818672299385
110.52758944034576
112.59507542848587
112.14730077981949
112.60795402526855
114.67413944005966
108.72366684675217
113.71840047836304
112.39419829845428
108.05776965618134
112.16949248313904
102.58166238665581
113.7957449555397
112.79128015041351
116.23377048969269
112.55313354730606
119.70771038532257
116.39207708835602
111.22037154436111
111.28228670358658
116.06184363365173
115.89583629369736
112.78720301389694
114.25456631183624
116.64695310592651
110.93509751558304
110.24985331296921
115.96571469306946
112.4616407752037
110.74302184581757
105.8056310415268
109.72376173734665
115.37875807285309
110.56328904628754
114.529829621315
115.07321107387543
109.36046952009201
112.69570255279541
107.8048255443573
107.71549853682518
112.89795207977295
117.08644491434097
111.97790056467056
112.76511096954346
112.05359929800034
111.99211007356644
110.26754426956177
107.26185095310211
114.24548774957657
114.34517759084702
117.6792579293251
114.83652251958847
116.84390962123871
109.04102820158005
117.45281475782394
111.9727213382721
116.57832342386246
111.0288622379303
107.50882852077484
112.95564138889313
117.41077220439911
111.11400836706161
110.56437093019485
111.57448583841324
112.06118857860565
115.47852921485901
109.90660637617111
118.72655564546585
115.8094573020935
117.51159757375717
112.37426596879959
111.47881907224655
112.17301589250565
114.60275393724442
113.11830532550812
113.5652579665184
114.70577907562256
111.98682343959808
116.20562994480133
109.33722627162933
115.77152001857758
112.83671045303345
112.05693966150284
105.73637706041336
107.30678826570511
112.78818970918655
114.07697343826294
110.01541084051132
108.6324999332428
114.0959290266037
112.14100152254105
111.35574781894684
112.23396050930023
113.29354512691498
111.33882182836533
109.42281121015549
112.66502970457077
112.91733902692795
113.15926069021225
113.14174622297287
106.00536793470383
106.64287641644478
116.14670133590698
109.88064348697662
112.4955684542656
115.317207634449
113.06486862897873
103.48890441656113
111.24839612841606
118.79202872514725
115.67778128385544
111.1152748465538
113.42634505033493
116.20836567878723
112.63987201452255
114.81623011827469
110.05533558130264
113.34111189842224
112.10597568750381
110.41825777292252
111.31131398677826
114.85117411613464
113.01285663247108
111.01872080564499
112.83318448066711
120.51937943696976
116.49834376573563
116.6672523021698
118.10968816280365
112.47535127401352
115.94732582569122
110.82869178056717
105.90479883551598
117.63135004043579
113.45307034254074
110.98896533250809
113.76511412858963
110.4274423122406
110.58368289470673
112.31009203195572
113.72083705663681
111.02316737174988
115.7136824131012
107.08324140310287
109.51990902423859
113.77026402950287
115.84439879655838
113.86097586154938
115.85579520463943
115.35734212398529
112.7717502117157
109.33213466405869
111.60801792144775
110.56275522708893
104.98722395300865
108.61636564135551
104.77056005597115
120.78504049777985
117.63014155626297
115.63393193483353
114.40527456998825
115.04863345623016
115.97197222709656
107.2196595966816
119.43737185001373
112.63831496238708
109.31073105335236
104.12998530268669
114.19297420978546
114.6707370877266
109.21585780382156
111.31556564569473
109.47184067964554
113.62845826148987
114.98258650302887
115.85080176591873
110.07139682769775
106.87749600410461
108.76372760534286
114.23013424873352
109.16712296009064
116.76274764537811
109.32261556386948
114.36320286989212
119.56889188289642
114.42530208826065
115.83477765321732
110.81728088855743
108.4157822728157
110.48981314897537
109.74187052249908
118.86373800039291
116.54019969701767
117.50167059898376
111.93368929624557
112.01961261034012
105.73251575231552
115.07523733377457
115.6001872420311
113.24312174320221
114.69205749034882
114.60129934549332
110.0073789358139
112.49101078510284
112.23722779750824
109.39883828163147
110.51106429100037
113.4415088891983
112.119564473629
105.46262738108635
73.95005694031715
107.37561398744583
118.63073760271072
116.59064501523972
110.61343389749527
113.3101732134819
114.234798848629
111.42418104410172
111.26212698221207
110.64996445178986
104.35763227939606
119.46606230735779
108.99760141968727
110.52428209781647
110.4102293252945
112.15338397026062
109.13576424121857
110.27066195011139
108.4006872177124
112.28504350781441
111.46642982959747
112.54222333431244
112.98402452468872
111.60759258270264
110.0155171751976
109.99295300245285
111.27731156349182
106.19947534799576
104.13551667332649
116.04508811235428
112.29733723402023
105.54187977313995
109.51397454738617
110.23823636770248
114.54032629728317
113.93257188796997
105.47402712702751
104.92351165413857
111.6209636926651
114.41880750656128
110.73951345682144
114.3879029750824
112.99541866779327
104.67543324828148
86.97799527645111
123.34227085113525
124.33600783348083
113.23589372634888
111.81347042322159
111.23209577798843
114.88699287176132
112.72706747055054
119.50596022605896
111.45753622055054
113.55828875303268
111.90283191204071
113.66655385494232
120.26742875576019
107.25044599175453
115.5749397277832
110.47652316093445
108.78777566552162
107.22433882951736
113.38851821422577
106.32396513223648
116.5638878941536
108.22277355194092
112.17393827438354
111.64611059427261
104.06332710385323
115.45058342814445
114.17511785030365
111.96768271923065
109.57821744680405
114.46075642108917
114.92197453975677
114.45149552822113
116.53542977571487
113.44242888689041
114.03811877965927
114.1774690747261
120.02626568078995
112.63971775770187
111.03534573316574
111.58818846940994
111.21067011356354
107.78411132097244
109.3856953382492
115.55205541849136
111.78442293405533
109.54096180200577
99.76901131868362
106.8238936662674
109.10117226839066
114.70528990030289
108.6398583650589
112.75239044427872
113.53114771842957
112.62342935800552
117.72354900836945
112.84636950492859
109.62763291597366
109.52320373058319
115.54651123285294
111.92004579305649
112.87111270427704
108.08567902445793
116.7696932554245
112.85073661804199
115.91403019428253
115.03530311584473
112.81727612018585
110.05996930599213
113.77852129936218
108.68551498651505
114.59458124637604
118.19965499639511
120.44750612974167
118.23549741506577
115.81191772222519
110.03668940067291
115.10427683591843
116.18863755464554
117.47104704380035
112.37267607450485
111.70673924684525
113.22878575325012
113.50925099849701
116.82812935113907
115.58483386039734
113.4757872223854
118.47155565023422
114.14340376853943
113.08898502588272
110.72498589754105
108.14837455749512
113.55519151687622
110.79297971725464
112.33281695842743
110.41421866416931
111.38679420948029
114.6521645784378
106.49340426921844
110.182412981987
110.9523840546608
107.21012490987778
107.3760015964508
112.60511648654938
110.02501055598259
111.76190766692162
107.37402594089508
110.85584568977356
111.89309066534042
112.8928729891777
115.05372607707977
110.44095659255981
110.00871181488037
112.11224579811096
113.01674562692642
109.51285457611084
118.41089689731598
110.79018580913544
110.62042433023453
115.72875761985779
115.30358093976974
115.57323640584946
109.91188925504684
110.40058410167694
109.96740734577179
114.13380861282349
115.9158638715744
113.74178034067154
111.77768117189407
114.09039205312729
109.66279542446136
111.40820747613907
112.48262670636177
121.03447735309601
116.53566992282867
110.95575678348541
112.19758766889572
112.10218548774719
117.24910855293274
109.25967025756836
114.39553940296173
113.62456691265106
114.08782488107681
115.93663769960403
118.16311973333359
112.38129776716232
82.24193650484085
112.63369250297546
120.87442940473557
116.3269675374031
116.42646950483322
109.5315911769867
112.89869701862335
112.94154512882233
115.39706176519394
107.39557281136513
108.44171106815338
113.14723467826843
110.38917571306229
109.52245718240738
113.30076241493225
111.40955603122711
109.37830790877342
106.2274711728096
107.78296583890915
106.20906555652618
110.76498639583588
115.45930999517441
111.80917197465897
116.4332720041275
114.82020062208176
111.19352021813393
110.7023293375969
112.32661145925522
107.32202482223511
106.51073533296585
110.4018902182579
113.9440129995346
115.47670233249664
105.6523494720459
110.48365294933319
109.97527134418488
117.18328154087067
112.23943948745728
114.43104684352875
109.86705321073532
111.66471809148788
114.09853941202164
96.04550698399544
114.12504664063454
108.29401594400406
107.2789643406868
117.91719001531601
114.60948944091797
111.61937594413757
114.70823162794113
114.77546030282974
113.6427458524704
112.01776897907257
110.7120156288147
112.11971521377563
114.55451935529709
112.26296889781952
110.26105397939682
105.40620994567871
112.60758227109909
106.87499928474426
109.9762778878212
110.85759860277176
114.16751629114151
118.090216755867
113.70526069402695
107.39858537912369
109.77054336667061
112.27810543775558
108.53910917043686
107.26318117976189
113.93830460309982
118.13283497095108
113.51714244484901
112.45269387960434
115.06755578517914
109.07354307174683
114.6787519454956
112.01888185739517
110.1182210445404
112.97679334878922
115.0044110417366
109.51176083087921
114.25260329246521
115.86424791812897
107.8075230717659
104.2352964580059
109.54486811161041
115.76199316978455
115.13276273012161
109.3207179903984
113.1491464972496
107.26079225540161
107.68564468622208
112.53871309757233
110.9962260723114
111.0426056087017
112.52862417697906
101.19466963410378
106.68155673146248
114.54817998409271
106.84140154719353
115.98580622673035
117.02442264556885
110.84086179733276
106.10049739480019
104.22095113992691
110.77947854995728
110.68102115392685
111.66000813245773
108.50905877351761
113.11116194725037
112.03983497619629
111.87744295597076
111.43459072709084
110.32183849811554
103.90373727679253
109.38412463665009
106.48581010103226
106.27058470249176
113.38951116800308
107.24703267216682
114.16725915670395
112.7506816983223
110.98887640237808
110.93878716230392
110.09860467910767
109.30898287892342
116.98199588060379
105.5002908706665
111.6357963681221
111.01053553819656
116.66640228033066
117.52202612161636
109.58187562227249
116.9577334523201
109.90177714824677
116.36129504442215
107.80348896980286
111.08127212524414
111.63991802930832
112.04617464542389
112.73986011743546
110.61835208535194
112.0192220211029
113.84798192977905
109.3096194267273
112.65486091375351
119.80110251903534
115.32733726501465
113.60760951042175
111.57700884342194
112.16555708646774
109.9049061536789
109.88011986017227
112.23499256372452
109.8787470459938
111.19078141450882
112.03237175941467
108.34234791994095
113.36532652378082
113.59650421142578
109.98975169658661
110.81780159473419
111.29692393541336
111.58794021606445
117.99692296981812
113.23847711086273
116.72258687019348
115.50245660543442
107.91526854038239
109.97694033384323
110.48699975013733
112.55954974889755
115.59993278980255
117.0957322716713
115.01927471160889
117.0934180021286
121.1539659500122
120.5204199552536
112.60264801979065
106.92269200086594
113.15805315971375
112.53437435626984
113.26349437236786
114.10992658138275
112.28739941120148
107.55373299121857
110.52982378005981
117.1458403468132
111.41344487667084
107.87286069989204
111.02623248100281
105.53307369351387
110.60069316625595
117.65499573945999
115.78794926404953
117.16427719593048
111.34968501329422
110.47704577445984
109.77316015958786
113.84048211574554
114.77347445487976
109.7371820807457
113.71700483560562
117.15600597858429
114.32010805606842
115.53315043449402
120.40510815382004
115.84569013118744
111.62591695785522
113.9504765868187
106.62341666221619
112.14784383773804
113.52280378341675
120.4745609164238
112.54269379377365
109.00328868627548
109.08513259887695
104.36154100298882
118.07212603092194
111.026625841856
117.91857355833054
119.70748299360275
116.45323497056961
119.41885685920715
115.58342915773392
111.7680339217186
109.1648879647255
113.34191960096359
114.34498977661133
96.66634231805801
124.21867346763611
113.10834950208664
115.7277163863182
113.03014290332794
122.10883647203445
113.9520611166954
115.88531565666199
111.5632855296135
110.70163780450821
112.80212622880936
112.29906272888184
117.18849021196365
114.46964532136917
109.78527545928955
113.5178074836731
113.01620906591415
118.0424634218216
116.94293338060379
112.84516263008118
116.60819494724274
113.69643598794937
119.53276324272156
124.50787818431854
116.448905646801
114.52433943748474
108.76577830314636
113.61109691858292
114.44071066379547
114.46309918165207
110.8492961525917
109.5186824798584
115.89696419239044
117.40621566772461
109.97866094112396
112.07560378313065
111.83303320407867
117.12106168270111
111.2111828327179
114.83948171138763
115.96630370616913
116.00329411029816
114.84508395195007
111.21626275777817
114.49381744861603
116.86015343666077
113.58717787265778
113.54142338037491
108.42862981557846
109.94996452331543
108.70286411046982
112.8299880027771
117.00160372257233
109.91383224725723
117.36648464202881
117.85484427213669
121.06984955072403
113.80416184663773
113.59246563911438
117.36867254972458
113.2932071685791
112.6197874546051
111.83328408002853
111.57963252067566
109.78161668777466
113.79297709465027
113.09961086511612
109.11368718743324
109.05044722557068
114.56315732002258
118.41505455970764
110.68925154209137
113.82213807106018
111.6808605492115
109.99564284086227
116.2195035815239
113.50402855873108
113.76301217079163
118.8221645951271
114.66810667514801
111.00098323822021
113.50214034318924
117.60617738962173
114.79388308525085
111.41036230325699
111.8354902267456
111.10204112529755
108.36922645568848
115.07193768024445
112.97600275278091
117.74898236989975
112.98103779554367
110.39054137468338
112.79094195365906
117.26495319604874
115.1464524269104
115.6891051530838
112.97682321071625
114.14907538890839
111.38856190443039
111.22296017408371
112.53141552209854
108.02279868721962
112.15253281593323
108.58157229423523
113.68324756622314
108.45219784975052
107.51465940475464
99.58302253484726
124.3289749622345
114.16099715232849
113.935815513134
113.31997948884964
111.74792152643204
110.30741983652115
111.44127464294434
111.76564234495163
110.53133696317673
112.96156996488571
105.08062040805817
111.04083448648453
107.69398021697998
105.15761131048203
107.54383277893066
109.69318351149559
119.31382018327713
110.6494168639183
109.74363088607788
109.17411106824875
107.4292021393776
113.44177228212357
113.28993266820908
108.04822957515717
116.15980780124664
114.14380836486816
112.44116401672363
113.07105177640915
109.36251518130302
116.18187314271927
117.09481763839722
114.18316531181335
118.66219210624695
118.63013350963593
118.70748686790466
115.35261905193329
109.89314496517181
115.09660160541534
108.8006100654602
109.386942923069
111.84529465436935
104.92411756515503
112.59132170677185
112.44899272918701
115.60753560066223
112.55231434106827
112.31216263771057
114.08078682422638
91.9327634871006
121.69976487755775
118.20436835289001
110.04776895046234
118.69098669290543
118.72577142715454
109.17797124385834
110.39633816480637
114.12796831130981
115.15164333581924
111.16432428359985
114.03545171022415
114.66770458221436
110.38190650939941
113.15417331457138
116.33959877490997
111.32731002569199
117.07276439666748
113.7891646027565
112.14571571350098
117.82790368795395
107.90121281147003
112.92863047122955
110.34017819166183
110.07923877239227
116.97191828489304
109.44589978456497
115.87123024463654
113.33873337507248
107.4150624871254
114.39565324783325
114.10214710235596
112.74704825878143
111.54253453016281
113.63214814662933
114.91729199886322
113.09106522798538
113.27889251708984
113.39771562814713
110.3832893371582
116.25240451097488
106.87520253658295
119.0008682012558
121.09008377790451
117.81758952140808
112.24519836902618
121.31411838531494
112.2616457939148
109.4955050945282
112.84216564893723
109.27224081754684
114.87841248512268
116.8911018371582
106.93080884218216
111.63331353664398
111.2849988937378
113.30087023973465
115.4107603430748
116.6744155883789
106.48052105307579
110.62121105194092
113.90477949380875
114.40919327735901
111.69078254699707
112.77987122535706
112.18073350191116
118.20425766706467
117.12621414661407
113.05505514144897
117.35574060678482
114.63262403011322
112.15588313341141
115.04507029056549
111.31263738870621
117.65714132785797
110.2621893286705
105.89926558732986
91.69594296813011
94.74781984090805
95.19269689917564
92.90841150283813
88.61925899982452
88.65702041983604
90.56602546572685
92.37412148714066
95.92585569620132
98.84673848748207
100.62096247076988
1194.3465476036072
797.2800559997559
612.2464045882225
522.5181414633989
282.0603281110525
169.6136984527111
143.52665697038174
118.59277060627937
157.3699008822441
200.8082433640957
165.7879038453102
178.50627386569977
131.05569821596146
92.69711264967918
170.36914363503456
93.70007918775082
54.277587965130806
2.9413660168647766
-9.8726127743721
-10.383040428161621
-34.12399013340473
-59.22733844816685
-46.176986776292324
-14.336802311241627
-6.904435656964779
-7.014319106936455
-11.083589650690556
-14.286925040185452
-16.205522805452347
-18.32872996479273
-17.61857308447361
-22.785796385258436
-22.37146880477667
-24.790158431977034
-31.137267753481865
-29.78781834244728
-28.926662422716618
-29.05667419731617
105.22256422042847
87.84956634044647
78.29508736729622
79.10842394828796
74.35451704263687
75.32838451862335
80.10867163538933
85.11387622356415
87.5238721370697
89.07195284962654
89.78899419307709
93.3708059489727
104.73435139656067
90.61333921551704
80.867654889822
74.8977854847908
72.3329645395279
76.25526434183121
77.56931895017624
80.06581321358681
85.14584198594093
89.45936191082001
91.07014152407646
92.09770599007607
94.69059047102928
97.48662033677101
96.00650206208229
98.05079028010368
97.93568715453148
97.48438557982445
99.88815197348595
101.45517718791962
101.12544092535973
100.97934013605118
101.42286550998688
102.75757783651352
102.89978259801865
103.95405662059784
105.64413928985596
106.90930199623108
106.47751319408417
106.18656849861145
105.84074103832245
104.33034962415695
106.84918230772018
106.2017023563385
106.03351444005966
105.64901292324066
108.52087473869324
107.15310299396515
108.79968130588531
107.8182128071785
109.13816004991531
110.49833053350449
111.64405333995819
110.00926846265793
110.48721569776535
110.92348676919937
113.17537868022919
110.50767761468887
113.06637895107269
111.60285675525665
112.92805707454681
112.80724877119064
111.49826711416245
112.28107291460037
111.84110605716705
114.18992984294891
111.48463702201843
111.3661270737648
113.71760976314545
114.36501061916351
113.30277985334396
112.8794230222702
112.24279326200485
111.34095042943954
112.20868849754333
111.67367470264435
110.2257770895958
109.9171022772789
111.55961787700653
112.85562092065811
111.76595962047577
109.66417980194092
110.82603126764297
109.10145938396454
112.50520992279053
112.88353198766708
109.47913712263107
112.52413552999496
110.86502432823181
111.90584218502045
114.26472038030624
113.50111198425293
112.68289488554001
109.80724358558655
111.73883390426636
112.59298431873322
112.19659477472305
112.50542843341827
110.49395877122879
110.19211673736572
109.73236066102982
113.45887529850006
113.96711438894272
111.6380386352539
110.4866161942482
111.32597506046295
114.54289209842682
113.05796390771866
111.33362230658531
115.37526655197144
