182.64960533380508
155.64007759094238
146.5959770679474
146.33257061243057
142.58373045921326
139.48003673553467
137.22980684041977
138.0878902077675
139.40795743465424
136.99842137098312
138.19207483530045
134.2912272810936
134.43731808662415
133.13284981250763
129.7947215437889
128.93764090538025
129.2349762916565
128.57864844799042
127.98318618535995
124.96261405944824
126.98371797800064
125.92556601762772
126.98638159036636
126.16346448659897
125.12461465597153
124.9455748796463
126.2498190999031
125.81358057260513
125.48712062835693
125.2036143541336
126.54030501842499
124.87587237358093
124.60697048902512
125.53547024726868
125.74133610725403
126.7353487610817
125.37159007787704
124.69637405872345
123.74044328927994
123.16099435091019
121.87638127803802
123.73247754573822
123.4549571275711
122.0324450135231
122.9835637807846
123.4390480518341
126.134157538414
125.78671586513519
124.48131614923477
124.87393891811371
122.23613238334656
121.49157643318176
120.09549653530121
119.50460904836655
118.79207873344421
119.31129938364029
120.24722069501877
119.88479119539261
117.51862871646881
117.7587559223175
117.06101930141449
184.751755297184
160.37984198331833
143.72473216056824
138.0240496993065
134.51404136419296
133.1035230755806
134.063951253891
137.04472583532333
136.80856847763062
133.73381745815277
130.11105263233185
128.77209162712097
125.18514269590378
123.19036912918091
121.8108080625534
122.04378640651703
120.13816314935684
118.12198883295059
119.58501988649368
118.61282652616501
117.29445242881775
118.25200772285461
118.43009811639786
118.78090518712997
118.85879570245743
118.59650099277496
119.09491437673569
117.35529774427414
117.97462296485901
115.61001598834991
113.78894221782684
113.33608728647232
114.06516498327255
114.5158222913742
112.80923390388489
112.57750880718231
112.68887007236481
111.10187631845474
111.87055546045303
113.30688834190369
112.96427726745605
114.72042793035507
114.25484746694565
112.34577029943466
114.0907809138298
115.39514458179474
114.90250939130783
113.6182290315628
115.19525730609894
113.63255017995834
117.20880645513535
117.66083019971848
119.31382167339325
118.84213536977768
117.78790158033371
116.42445957660675
116.57478123903275
117.0609884262085
117.87408727407455
118.62117910385132
117.52096968889236
118.87478482723236
120.66417050361633
119.5843300819397
117.64657324552536
117.61232727766037
115.66160929203033
118.07668024301529
120.28842914104462
117.39605242013931
117.38249504566193
118.3553614616394
119.20653408765793
117.19306582212448
116.40900641679764
116.36859267950058
115.65663397312164
118.56275343894958
118.33679729700089
117.18035197257996
117.11986994743347
118.1200538277626
119.59925472736359
120.94440281391144
120.32569670677185
118.17458087205887
118.2870027422905
120.65803724527359
122.5334450006485
119.37781012058258
125.19468641281128
120.46074789762497
119.42350751161575
119.26115483045578
122.19694012403488
118.0848947763443
120.94502693414688
119.2125552892685
119.1398269534111
119.02771192789078
118.80821251869202
117.05404567718506
117.58036816120148
120.20908534526825
118.40101045370102
118.65410536527634
120.31031394004822
120.810984313488
121.04758316278458
118.88478630781174
118.58732831478119
118.43695366382599
120.53851103782654
120.71937614679337
121.60217154026031
122.82372975349426
121.61854481697083
124.46219033002853
122.76098066568375
123.7163377404213
124.80673629045486
122.56475454568863
122.13626182079315
123.85695499181747
122.01323729753494
127.47174096107483
124.64746874570847
118.95432901382446
121.14451217651367
122.85888665914536
122.34458810091019
123.25389689207077
124.03449922800064
127.25215667486191
125.37382972240448
123.67059969902039
121.42035573720932
123.49355173110962
124.73137146234512
125.44792747497559
122.75344181060791
124.12461411952972
124.32177573442459
124.88515049219131
125.03990405797958
122.69012957811356
122.35144025087357
128.11833703517914
120.22726571559906
120.59679716825485
121.60427534580231
125.77227902412415
127.66246366500854
123.93736392259598
124.0909816622734
122.34161800146103
123.52991038560867
122.94181448221207
122.1374522447586
125.17839175462723
122.05920040607452
123.79599452018738
120.52484774589539
121.76763528585434
121.55822259187698
127.11256033182144
124.57166767120361
123.78779405355453
123.2134171128273
124.61392658948898
124.54455429315567
130.284041762352
129.3109074831009
124.87652558088303
131.4099251627922
129.85238724946976
131.63234794139862
128.95714938640594
125.98693537712097
123.54527604579926
125.02264040708542
124.28353011608124
123.53916931152344
131.12099021673203
125.0665470957756
124.3969356417656
122.48764038085938
126.9341704249382
124.78962713479996
124.92257624864578
126.46948778629303
126.33654636144638
126.21477675437927
123.90258705615997
124.03357100486755
126.3642583489418
123.14231276512146
124.52781903743744
122.55860590934753
124.49428641796112
125.14658439159393
124.67482364177704
125.14013266563416
124.64700800180435
125.05980759859085
125.98723357915878
125.5169295668602
123.65167075395584
122.91461116075516
122.7384523153305
124.78894573450089
123.9994575381279
122.18927985429764
122.39747142791748
122.69934403896332
120.46087682247162
122.90465080738068
122.39502286911011
120.82102447748184
122.50883561372757
128.40138864517212
127.95803374052048
123.84132379293442
123.43608754873276
131.87543386220932
131.0353808403015
126.4729436635971
123.4081237912178
126.03227931261063
123.4271490573883
122.40028369426727
123.82826340198517
127.68161904811859
121.28576165437698
123.02714085578918
124.55277979373932
122.83433121442795
123.63264608383179
124.93876445293427
123.02728718519211
124.09823340177536
125.07524901628494
124.10170292854309
129.01604425907135
129.48502272367477
124.78722727298737
125.19850999116898
131.79682904481888
126.72121405601501
126.25729590654373
129.491013109684
129.78574985265732
129.34746193885803
129.03142404556274
126.9371429681778
124.38446259498596
125.74030196666718
131.2871824502945
129.52659332752228
126.65183609724045
124.51943427324295
127.10605120658875
126.39995527267456
123.23857873678207
124.12236058712006
121.85893964767456
122.12401646375656
124.20745658874512
126.30177801847458
124.8120054602623
126.18897491693497
125.06295895576477
124.41427826881409
120.78936576843262
124.85777354240417
125.4402687549591
122.87168484926224
126.00931453704834
125.46744525432587
124.70867258310318
124.33698672056198
127.68981957435608
127.54586321115494
126.37214434146881
129.61033135652542
129.25174021720886
126.77973532676697
126.7487798333168
127.29020011425018
127.68197339773178
131.51391530036926
131.44152891635895
132.09256207942963
132.8603149652481
133.68614792823792
130.27271258831024
128.7006294131279
125.98947513103485
128.1434195637703
124.89647835493088
125.68281722068787
127.6556425690651
128.0082449913025
129.2708756327629
130.52461755275726
128.5648404955864
131.2629293203354
129.89618384838104
125.81319969892502
125.76834470033646
125.89624971151352
126.21415793895721
124.23157477378845
127.99552017450333
129.15252339839935
130.70870953798294
132.79325145483017
125.34851080179214
125.93448102474213
129.8189172744751
128.3951357603073
123.053640127182
125.07790452241898
128.8750203847885
126.55286645889282
126.71447676420212
130.36556947231293
129.99046540260315
128.77208530902863
124.95332837104797
127.03813368082047
129.01119297742844
126.51396524906158
129.01524090766907
126.3093631863594
123.48417806625366
126.01855808496475
127.20005112886429
126.95540797710419
124.09485274553299
125.53600549697876
126.18939220905304
127.9711645245552
126.69219732284546
129.54790353775024
123.89685171842575
127.77792298793793
136.90069246292114
131.03854149580002
129.11801654100418
125.42814630270004
128.1510624885559
127.79553067684174
131.40166699886322
125.22901833057404
125.31925046443939
128.22366017103195
124.85827934741974
128.04347056150436
124.77025389671326
129.30853700637817
128.95887511968613
129.04630798101425
126.71075201034546
129.8297671675682
132.65752857923508
130.69224733114243
126.88599866628647
130.39232277870178
131.14269560575485
130.77358901500702
128.8596323132515
132.39331662654877
131.69643568992615
132.93251448869705
132.39506781101227
130.19321477413177
130.84172505140305
129.12050479650497
127.72401481866837
129.82986533641815
129.92965185642242
133.42720049619675
134.93483966588974
131.2616159915924
129.02504062652588
132.83326917886734
129.12425035238266
128.28460723161697
130.4604150056839
135.8831638097763
130.25225061178207
127.67668062448502
126.75012308359146
128.08291298151016
131.2936616539955
128.56778341531754
128.63228887319565
128.3294661641121
131.26634007692337
125.74103456735611
126.00503039360046
126.96088290214539
126.77841579914093
129.47634083032608
125.15501135587692
125.94777017831802
127.38720715045929
132.1431920528412
130.6969386935234
127.54299134016037
128.48834174871445
128.81186944246292
130.54373216629028
127.39090943336487
128.6930080652237
126.77350676059723
128.96177124977112
127.89335823059082
130.4865328669548
133.684719145298
130.28662264347076
129.39510756731033
129.18757808208466
129.29217809438705
128.1104199886322
127.78881055116653
124.25512427091599
127.40095120668411
128.61281102895737
129.5664992928505
127.4045479297638
133.4892422556877
136.2511134147644
132.2964415550232
133.37404173612595
131.5950139760971
134.53402417898178
134.51976549625397
133.63264387845993
129.94829922914505
133.5706489086151
133.35978746414185
131.14661157131195
132.7862607240677
126.2513684630394
128.51463162899017
128.39464163780212
132.1671748161316
132.8799530863762
128.80608922243118
129.916186273098
134.2896203994751
131.30659180879593
128.02512043714523
126.93387877941132
127.6274162530899
131.4185506105423
131.66811209917068
132.27608025074005
132.35130989551544
132.15633767843246
128.24888026714325
129.51525539159775
125.22328919172287
127.72885763645172
129.78137773275375
126.61341941356659
126.31301617622375
123.07098495960236
122.20913630723953
123.30406075716019
126.25548911094666
134.07439041137695
126.4824977517128
124.13745146989822
126.81887608766556
127.20520180463791
129.38003492355347
127.98038727045059
126.14437460899353
126.63381564617157
128.63263523578644
129.29381185770035
126.1141003370285
126.26786524057388
127.21208387613297
131.9946133494377
129.06135070323944
130.05626958608627
125.90532463788986
131.3545704483986
133.8061597943306
128.93822014331818
134.65944463014603
130.1699588894844
128.93040758371353
131.71735471487045
132.33042293787003
132.88823187351227
132.66833227872849
127.72447484731674
129.34842962026596
129.33485972881317
126.63285171985626
126.19720941781998
125.19233238697052
123.47672951221466
124.62691253423691
124.89360874891281
124.4237248301506
125.21328216791153
130.68445736169815
124.39962631464005
124.4638243317604
125.96410918235779
125.8719049692154
127.4932581782341
127.63174897432327
128.0496283173561
125.74229484796524
126.50285935401917
126.76021045446396
126.11296957731247
125.56448316574097
121.6003532409668
124.68189311027527
126.43613713979721
123.7740141749382
126.56148225069046
128.2354812026024
129.98494786024094
130.03461295366287
128.59030610322952
125.96304225921631
127.66184288263321
132.72520792484283
134.52407479286194
127.87998396158218
127.50112241506577
124.81143599748611
121.68418741226196
123.61432135105133
128.37123548984528
128.25372183322906
133.78671389818192
133.35413926839828
125.99992614984512
127.10125994682312
128.16908222436905
126.08034706115723
125.52953469753265
125.67731219530106
124.32087141275406
128.59719944000244
129.53009992837906
126.68355464935303
125.7925836443901
125.83137118816376
127.41376823186874
127.99770140647888
128.7702016234398
124.96400439739227
129.7478603720665
129.8029026389122
126.88599675893784
124.75075924396515
129.33710449934006
129.30472260713577
130.61965888738632
132.08902251720428
127.82280254364014
125.12346076965332
128.6267191171646
129.50919097661972
132.4531625509262
132.05780124664307
130.81067806482315
131.72962546348572
135.56697046756744
130.28291964530945
134.42117035388947
130.03611981868744
131.75036251544952
130.2114372253418
129.3250612616539
126.15858960151672
126.02221691608429
128.70742106437683
131.7978634238243
129.95723313093185
130.16464364528656
130.90999919176102
132.16116559505463
132.24325960874557
132.89603835344315
135.9533720612526
133.80827230215073
132.9846937060356
130.83424025774002
127.4941274523735
128.20916241407394
134.65135431289673
133.20400649309158
131.70192277431488
130.32117348909378
130.84190875291824
129.42555624246597
125.05993646383286
126.9530480504036
125.99620193243027
127.34726810455322
129.1450558900833
125.20110988616943
129.51361107826233
126.7265499830246
126.73023813962936
125.2423887848854
127.32922679185867
127.68528485298157
128.42956441640854
128.31077814102173
130.97803896665573
133.6057556271553
131.22720164060593
127.68702322244644
127.68697595596313
127.95127737522125
129.17227917909622
132.23242431879044
132.77733665704727
133.28230613470078
138.08384501934052
132.88254308700562
131.40418654680252
131.62175500392914
128.74818193912506
130.88606947660446
130.16602724790573
128.52516794204712
132.97680670022964
139.2718339562416
135.76935636997223
129.17554968595505
128.4024178981781
127.08944290876389
129.92191565036774
134.26787734031677
128.6836632490158
127.18482607603073
127.80261069536209
128.54414916038513
131.3050194978714
132.77664458751678
131.21569049358368
133.7379305958748
127.9885995388031
129.36886632442474
130.04595255851746
129.01552152633667
129.54830086231232
132.60957545042038
134.56171482801437
130.24314153194427
129.80068790912628
132.75940245389938
130.29827505350113
126.54372352361679
126.12984991073608
125.00620836019516
127.30880981683731
126.39742177724838
126.16083747148514
126.02326828241348
126.31274908781052
130.7554983496666
128.98785370588303
127.42352962493896
129.066957116127
129.8427196741104
129.0070561170578
128.52401000261307
131.92873513698578
134.8878155350685
131.34419405460358
129.6328399181366
130.10506784915924
128.64224636554718
128.13199871778488
130.23371255397797
128.1705384850502
131.65610814094543
128.1947455406189
128.64329254627228
128.71305483579636
128.51597076654434
129.91823768615723
127.31563073396683
126.68723350763321
127.82316595315933
131.94004452228546
128.08818477392197
125.83042806386948
129.23756557703018
127.56857180595398
128.20774102210999
129.04156440496445
128.63432377576828
131.922449529171
131.94333654642105
129.70365834236145
131.1788735985756
129.67061042785645
130.03889566659927
124.23315942287445
123.87243241071701
127.85076904296875
127.41236048936844
130.00105053186417
128.64875984191895
126.30507069826126
131.8316907286644
129.5959997177124
131.04446631669998
134.01369678974152
131.23269486427307
128.3564768433571
132.04619693756104
132.31052297353745
130.45510005950928
129.58603185415268
127.57413482666016
126.38978266716003
132.35763782262802
132.68057268857956
129.74126583337784
132.88726848363876
129.1623974442482
131.73455315828323
126.06831353902817
126.48711735010147
129.2548137307167
129.21738177537918
129.06518065929413
131.58304077386856
132.3643079996109
127.53146970272064
128.80285024642944
128.66648662090302
128.18993771076202
130.7479828596115
127.54752326011658
127.64177471399307
130.19791162014008
131.88185930252075
132.56282007694244
135.07240349054337
135.73528122901917
130.7112060189247
125.74380618333817
127.08049875497818
126.19038933515549
126.18223696947098
127.73562145233154
128.7403576374054
125.00563943386078
126.62379443645477
132.6858125925064
132.09615355730057
124.39449071884155
125.79482305049896
135.801187813282
129.45142948627472
129.5487272143364
126.9431164264679
130.3467192053795
129.60001069307327
128.51857137680054
129.02310597896576
125.93654197454453
128.64590346813202
126.52361923456192
125.31635868549347
128.10897290706635
130.00842863321304
130.9090883731842
128.5388746857643
131.59888976812363
128.4322236776352
129.017984688282
126.02662545442581
129.41134053468704
128.32706958055496
129.13724207878113
127.70730191469193
124.7220847606659
122.74261331558228
123.29611790180206
128.43276941776276
121.8951028585434
123.15451222658157
127.31044447422028
128.77870935201645
126.61006045341492
129.9136398434639
129.12585484981537
131.6109101176262
131.13569802045822
125.83002477884293
123.60314333438873
125.65030151605606
127.22906094789505
126.607302069664
127.91059017181396
126.24920845031738
127.5084999203682
132.6003401875496
127.97146028280258
130.8761284351349
131.1192147731781
128.01104933023453
128.87293243408203
130.9996222257614
128.51769256591797
130.78070890903473
127.19996219873428
130.09507554769516
126.81578552722931
127.98386430740356
124.81039142608643
130.36826711893082
126.72481739521027
130.50777810811996
126.14340400695801
128.81252723932266
128.75739604234695
124.91831463575363
125.5736392736435
122.90630561113358
126.03919750452042
125.05468666553497
125.48276561498642
124.81630140542984
125.77540183067322
123.00751566886902
125.57599604129791
124.79293006658554
124.38477939367294
123.52812474966049
127.90831077098846
127.26415652036667
125.54573965072632
125.90376621484756
127.4430524110794
129.3345919251442
125.75697642564774
127.42006134986877
122.31522810459137
125.19277560710907
122.64136493206024
124.69599974155426
126.44758230447769
125.86339384317398
124.17073088884354
124.30167108774185
123.19653844833374
124.42830806970596
122.66989761590958
123.96579241752625
124.94347184896469
124.1029840707779
125.38788902759552
126.07741338014603
124.57247018814087
128.4198660850525
132.0787091255188
125.94115227460861
124.90829414129257
126.64192026853561
126.91020172834396
128.4861839413643
125.36065542697906
124.37821018695831
124.40765404701233
123.49165320396423
124.34176462888718
128.69988518953323
131.85090792179108
126.29262149333954
127.8687151670456
133.47968846559525
128.63362193107605
127.30107295513153
124.76063024997711
124.40239173173904
125.84860581159592
126.15683549642563
128.30424177646637
122.26705569028854
128.33228760957718
124.46335434913635
128.90314602851868
121.48303598165512
123.77062600851059
127.03360414505005
127.2167392373085
124.63141697645187
126.70353192090988
125.32456028461456
128.98035717010498
124.63271677494049
126.53969269990921
126.65850400924683
125.50433105230331
126.12937295436859
129.06435495615005
129.1025794148445
129.23399591445923
130.9660096168518
128.42052441835403
129.39992332458496
127.11513209342957
127.67692452669144
126.19330847263336
130.7527500987053
131.22320765256882
125.39405304193497
123.96509999036789
124.69679123163223
126.51040506362915
126.21406894922256
126.09873336553574
127.46430659294128
131.46303123235703
128.56337279081345
125.50127613544464
127.20404034852982
128.42540287971497
126.80972945690155
124.9256432056427
128.22933000326157
130.1295409798622
127.04823333024979
127.01903754472733
126.97583031654358
126.38190519809723
126.90758138895035
125.93588691949844
128.15508717298508
128.39789551496506
127.6615891456604
126.77763557434082
125.46591228246689
128.3780613541603
127.64364850521088
129.21610337495804
129.53527772426605
130.53680229187012
127.44655871391296
129.0810660123825
130.2755442261696
130.4057074189186
124.48218983411789
123.20204544067383
127.65912801027298
127.57555150985718
126.62100744247437
127.36952233314514
123.55438834428787
127.69613301753998
126.21475946903229
125.37467533349991
128.2303591966629
122.62185055017471
124.14370197057724
125.47642105817795
126.39912104606628
126.3534180521965
128.0666692852974
124.82383477687836
126.08885192871094
128.27946203947067
128.4606575369835
126.69188368320465
130.14628511667252
126.18702238798141
126.31659162044525
128.4828478693962
126.2712870836258
126.67556428909302
126.90563803911209
127.14511793851852
127.32171475887299
123.97042244672775
126.38248163461685
125.57967311143875
124.61235857009888
127.51023960113525
125.50024890899658
126.61648190021515
173.43832343816757
167.47997611761093
161.82372117042542
157.1953067779541
140.68946087360382
130.93628281354904
126.28905409574509
119.80337053537369
108.55246961116791
79.03937304019928
-8.912273615598679
-306.3673132658005
148.82661658525467
129.62436151504517
87.7073657810688
65.85728335380554
53.13086801767349
26.898449301719666
13.753522366285324
25.92528472840786
25.730921238660812
12.622995778918266
27.962156489491463
19.781559720635414
22.83924689888954
16.33399796485901
20.708038985729218
20.117404893040657
24.4580025523901
29.68373218178749
30.216129153966904
32.90059243142605
32.2578187584877
35.892432779073715
31.60175922513008
23.25101514160633
20.962787449359894
20.0973901450634
19.56013062596321
19.939995244145393
20.217972815036774
20.778930455446243
18.25170937180519
20.83290809392929
21.917195573449135
22.36084535717964
17.792521119117737
19.005844056606293
19.550332486629486
21.59953211247921
182.15412884950638
153.13193994760513
141.9411587715149
137.05090218782425
135.88022953271866
139.78732126951218
140.08354246616364
139.2976309657097
137.08817160129547
136.98403853178024
135.89801919460297
134.47089475393295
185.4595946073532
176.18340784311295
168.6777165532112
150.2041610479355
141.00686728954315
137.7761046886444
135.05022710561752
137.25263595581055
135.86770379543304
139.10085546970367
136.89272505044937
137.05703109502792
133.17492133378983
134.19511157274246
132.4921704530716
135.050122320652
134.13513964414597
135.56609690189362
133.71530371904373
132.8629967570305
131.81486237049103
130.37051218748093
130.6083709001541
129.5649312734604
129.29601579904556
127.85288208723068
127.9252799153328
127.75723904371262
127.68686634302139
127.34540992975235
127.03885000944138
126.44210970401764
128.61438190937042
127.44804811477661
127.25654184818268
127.0106640458107
126.88697504997253
125.54752230644226
125.42282301187515
124.09308522939682
125.47927868366241
126.00095081329346
124.35203903913498
124.04410868883133
123.86296755075455
124.27366381883621
123.24434405565262
121.83412528038025
123.05613195896149
121.21412932872772
118.35875821113586
120.11688530445099
119.03039371967316
119.8796455860138
118.3335120677948
121.3449392914772
119.60824501514435
119.91194832324982
120.5935418009758
119.52053117752075
119.80179190635681
120.15797132253647
118.6309021115303
118.42728990316391
118.60382497310638
119.67457622289658
116.17071932554245
118.39770966768265
118.36927056312561
118.19643050432205
117.1888639330864
117.4263870716095
119.14191436767578
119.28527164459229
118.016408264637
118.56061834096909
118.45069867372513
117.6146821975708
118.4457283616066
119.72846764326096
119.44178074598312
120.1339071393013
119.39345932006836
119.66912442445755
118.84488278627396
118.39610588550568
117.89407473802567
120.34720313549042
119.22412186861038
119.2525281906128
120.09130382537842
119.2999016046524
121.11498510837555
119.31871926784515
120.66393053531647
120.61579495668411
120.69313538074493
118.53544789552689
118.83181113004684
119.25143855810165
