22.542739987373352
26.194540679454803
34.655922293663025
24.492491900920868
23.244774878025055
31.144359946250916
27.213702082633972
17.36759525537491
21.791083991527557
30.793884754180908
20.892480492591858
24.312196671962738
23.476161062717438
25.293508231639862
24.349316656589508
23.859168767929077
23.24366170167923
24.811278343200684
20.81058269739151
24.271821975708008
25.584949791431427
25.184801518917084
26.141607582569122
25.862495362758636
27.955913066864014
25.0764582157135
28.83138597011566
24.08882474899292
28.160909235477448
26.909762799739838
28.48421025276184
28.895371675491333
28.954286873340607
20.60783439874649
29.52552318572998
30.783534049987793
32.76007616519928
30.379560470581055
29.787227511405945
30.88533043861389
30.67683380842209
34.78944730758667
32.52075707912445
28.22045385837555
33.39761137962341
33.264453053474426
32.632163405418396
32.004122376441956
30.829845547676086
31.766185760498047
33.679694414138794
33.58770954608917
31.518799245357513
30.110461711883545
28.11083483695984
30.530852794647217
33.15398359298706
30.750051498413086
31.189005374908447
28.376020193099976
31.994154572486877
21.065232038497925
27.231134831905365
28.06987100839615
25.36786389350891
31.36615425348282
22.272517502307892
24.873818814754486
23.23077404499054
25.640668153762817
25.237866759300232
26.33322775363922
27.73795312643051
24.353097558021545
26.50727951526642
25.53682851791382
28.68359351158142
29.99535322189331
32.2187077999115
31.48560380935669
31.311903953552246
30.4395409822464
29.32689893245697
31.732326865196228
30.689709424972534
30.702423214912415
30.28732144832611
38.50253891944885
30.232392191886902
35.22917866706848
28.55515545606613
32.11474061012268
35.1620637178421
32.648999094963074
29.86445903778076
34.08129858970642
33.583173632621765
33.7279669046402
26.558636486530304
32.31513726711273
32.34494376182556
32.0595782995224
32.97838497161865
31.835572719573975
34.963200092315674
32.73461127281189
33.432899475097656
34.58076000213623
31.06266415119171
38.78771471977234
32.22268581390381
33.673686265945435
23.126086354255676
36.14024114608765
29.80698001384735
33.30458080768585
39.555896401405334
30.091208696365356
32.4797660112381
28.01878261566162
32.90590190887451
30.629608035087585
28.73234075307846
35.34102404117584
27.365214824676514
30.77446448802948
30.47476840019226
30.96095085144043
24.01355069875717
28.908146858215332
29.691212058067322
31.532686948776245
27.104140043258667
32.12761199474335
26.671664595603943
29.305127024650574
29.338252186775208
32.4738347530365
33.785324454307556
26.8729590177536
25.515851080417633
29.002186119556427
25.240217924118042
29.424422442913055
27.51446169614792
33.48425257205963
31.395926415920258
30.8600070476532
31.773053884506226
30.1889728307724
32.647382855415344
21.72680926322937
27.870222747325897
34.65666222572327
30.524305403232574
26.60889434814453
28.933229684829712
31.59515392780304
29.43165385723114
26.348011553287506
28.192080795764923
26.776506423950195
29.16101384162903
25.941727876663208
35.16485595703125
31.993902802467346
32.744895935058594
33.67481184005737
27.269776463508606
27.327284455299377
27.93624722957611
26.613090753555298
29.76339852809906
25.52557134628296
21.208037555217743
36.22767210006714
24.94880837202072
31.046428561210632
24.499763429164886
29.327626943588257
33.18581211566925
26.916776299476624
23.65390771627426
28.837484002113342
28.83638036251068
20.810973048210144
31.782590866088867
21.308404088020325
26.391976535320282
30.50562858581543
29.250381231307983
26.375216364860535
26.48134595155716
36.71120011806488
22.021088182926178
33.39250838756561
26.39396333694458
22.84370917081833
28.073606967926025
31.438222765922546
29.660292744636536
30.119494557380676
27.524791717529297
31.369836568832397
27.11406236886978
26.229890942573547
30.051227807998657
27.83798599243164
23.589437663555145
15.784668534994125
30.070321917533875
28.356818437576294
31.803184270858765
28.322459936141968
25.159853041172028
32.21757376194
27.42566019296646
27.536233842372894
26.272466242313385
26.327178835868835
24.81196403503418
27.015493631362915
34.34572875499725
39.50054371356964
28.56336146593094
28.069251120090485
28.69464135169983
30.637712121009827
30.253909826278687
38.308159828186035
26.071347296237946
26.857034981250763
26.040375351905823
28.092639684677124
31.864381551742554
17.030576467514038
27.323335766792297
17.429360389709473
28.831406116485596
28.830676317214966
26.737726092338562
27.44144880771637
28.313796162605286
22.0175062417984
34.62384557723999
30.543166518211365
25.520802855491638
26.442038774490356
25.149297058582306
25.66944396495819
26.946627974510193
28.439427137374878
21.876505494117737
21.9077068567276
28.453350067138672
22.5918008685112
26.592287123203278
20.26793599128723
24.999475181102753
29.19239968061447
30.644044518470764
29.231693148612976
37.211413741111755
28.890021920204163
27.944421648979187
33.26564979553223
30.523966550827026
28.532909750938416
34.7128210067749
29.416432976722717
27.354179859161377
29.2529319524765
38.23734724521637
27.465304911136627
27.384676694869995
30.922857522964478
36.50341260433197
28.56472110748291
30.443363189697266
28.705197930336
25.93212604522705
27.446494460105896
27.537070512771606
26.7874156832695
30.48871874809265
15.721768230199814
28.709421396255493
30.889838457107544
23.40896314382553
24.79658806324005
24.085163950920105
30.067975521087646
22.462749004364014
21.122491598129272
25.239549577236176
25.310189425945282
24.290399193763733
20.614756166934967
25.41004091501236
29.729687929153442
36.534247517585754
30.3764728307724
28.076157569885254
30.276018738746643
24.342500686645508
22.31715178489685
27.545841455459595
15.38928747177124
30.39261281490326
28.280049979686737
28.57841384410858
18.36470800638199
27.739086151123047
31.159072756767273
27.986262023448944
30.161953449249268
29.975735545158386
21.433225691318512
14.09093689918518
29.839093446731567
20.24214994907379
22.68525993824005
23.474801778793335
23.54565167427063
27.82973402738571
31.27139961719513
28.570497155189514
22.2767716050148
27.6544331908226
31.578261375427246
26.69306915998459
20.363236129283905
28.164198577404022
25.531226217746735
31.13441574573517
29.831663608551025
25.071719110012054
26.224614024162292
25.368074893951416
26.31614238023758
23.230094075202942
28.032734513282776
31.632641911506653
26.740701854228973
22.886390328407288
25.548599779605865
27.0998033285141
23.679544270038605
29.557281255722046
28.41192865371704
24.775177478790283
26.439457893371582
24.124852418899536
27.84308284521103
25.245855569839478
25.134333908557892
21.17816150188446
27.651752650737762
29.464643716812134
25.196729838848114
25.392116487026215
23.71899253129959
27.731901049613953
27.613439321517944
33.10506451129913
29.693403005599976
23.48424118757248
29.49036592245102
28.543971955776215
19.50977510213852
26.342092633247375
26.333116829395294
21.656961679458618
31.044987320899963
22.913261651992798
21.886854469776154
23.279676020145416
24.932044684886932
32.37440776824951
24.133252024650574
30.121572732925415
25.677206337451935
29.095709681510925
25.263634085655212
34.285396099090576
26.003701508045197
17.333086729049683
25.70257031917572
30.467464685440063
26.475151538848877
27.532226085662842
23.29995334148407
24.038917124271393
27.955371975898743
25.821493566036224
25.342256009578705
29.274173498153687
26.673739671707153
33.081236720085144
28.50729376077652
25.04211848974228
21.894126772880554
33.09959614276886
24.329883575439453
20.224227249622345
25.115943491458893
29.637997031211853
19.10696053504944
21.739806354045868
25.053876757621765
28.35259860754013
25.29473525285721
31.468544960021973
25.80929321050644
26.057520151138306
35.38530647754669
28.93275362253189
28.846618711948395
26.463592886924744
25.295012593269348
40.5545117855072
27.245789885520935
23.8424910902977
27.54808086156845
25.518392026424408
23.62308633327484
24.069292306900024
21.59408301115036
27.911859035491943
28.658175230026245
25.81048548221588
25.26034116744995
25.34391099214554
33.89535462856293
23.488197207450867
26.41871529817581
29.534048855304718
25.683247685432434
27.707331717014313
24.7152738571167
29.410483360290527
36.17587232589722
26.263136208057404
30.44147753715515
24.995202243328094
30.313253045082092
31.765145897865295
28.89171665906906
26.99408656358719
29.88735270500183
22.269767940044403
31.448652863502502
15.752181202173233
16.281496584415436
35.02844798564911
17.91476881504059
23.064676880836487
28.293788194656372
26.5700865983963
21.947458386421204
23.545647084712982
24.674466729164124
28.9174542427063
29.99252200126648
24.870168149471283
20.456335365772247
23.376103401184082
25.61706781387329
25.346062541007996
29.1852023601532
24.67713975906372
27.647154569625854
33.65518844127655
27.57253497838974
25.08569175004959
37.49074566364288
21.5307155251503
13.260685443878174
23.144071221351624
25.32933682203293
23.5905419588089
21.935819685459137
30.911951780319214
19.043818533420563
18.697440147399902
21.8353453874588
25.613004624843597
28.55166858434677
21.697430312633514
21.7202627658844
24.338241398334503
23.21157956123352
26.118695557117462
26.597747683525085
24.203890442848206
22.22691297531128
22.84193879365921
19.41708505153656
18.788883864879608
19.97445446252823
24.737958431243896
27.593242585659027
22.68806290626526
20.505299627780914
25.37143886089325
30.002070546150208
23.69130027294159
31.735186457633972
28.170758187770844
27.279586493968964
28.793780863285065
25.688227236270905
23.922049164772034
22.299305140972137
23.17883998155594
27.416316986083984
20.527913212776184
24.855068922042847
21.821257412433624
17.991513907909393
17.705449044704437
19.616325855255127
22.15866082906723
23.728199779987335
17.38511037826538
23.661856412887573
26.059870839118958
29.28112828731537
25.715061902999878
27.255844593048096
28.92290961742401
27.10844123363495
31.171666264533997
30.476274132728577
27.369787514209747
29.11515212059021
23.773188769817352
23.35021710395813
31.22240173816681
25.106204390525818
19.717629313468933
26.067142367362976
25.866011679172516
24.13308572769165
29.486502945423126
35.387863636016846
29.524723291397095
21.252344846725464
25.936182379722595
25.417654991149902
25.559509754180908
21.335205733776093
22.403618693351746
24.579063534736633
32.20881259441376
28.199743270874023
23.492814540863037
19.416929304599762
18.904593288898468
20.75526624917984
21.171778559684753
27.599751889705658
28.496414184570312
26.21917688846588
24.08201026916504
24.941313445568085
23.661248087882996
26.792493760585785
24.317148506641388
28.036197900772095
31.54305398464203
21.369023025035858
24.43538600206375
26.53191787004471
29.586602091789246
22.030836701393127
23.720170736312866
24.211494743824005
24.572987020015717
28.83171033859253
29.37432587146759
28.31940996646881
32.59334683418274
28.570534825325012
29.583080172538757
30.470251441001892
23.189544200897217
24.777108252048492
23.85744220018387
23.20422351360321
29.701512813568115
32.82640051841736
27.114791214466095
30.096076250076294
25.006002008914948
14.015620738267899
24.438129365444183
21.04196798801422
30.163424253463745
15.824859082698822
19.45399707555771
27.349600672721863
27.278042197227478
28.854408085346222
24.785959899425507
26.094754576683044
26.043179631233215
28.026809334754944
23.168936908245087
26.084105849266052
25.030203998088837
23.975810766220093
19.530970752239227
20.23788559436798
23.973992228507996
22.700231313705444
19.27894937992096
23.246350526809692
18.93364030122757
23.994198262691498
23.629567980766296
20.57946628332138
28.37932813167572
27.033521711826324
26.030628263950348
23.37545996904373
33.78759062290192
25.990917205810547
33.007022976875305
24.946362257003784
18.027773678302765
28.51551502943039
27.179579973220825
29.043692469596863
31.026124596595764
21.04117614030838
24.753266155719757
27.882510781288147
28.206322133541107
26.79361879825592
25.708361268043518
24.001408100128174
22.532406389713287
36.33818233013153
24.92777717113495
31.599713802337646
29.238947808742523
28.909371733665466
24.341876089572906
23.913514971733093
27.854194939136505
26.8753879070282
29.79883325099945
24.480311334133148
16.544468581676483
30.195441007614136
26.70145356655121
33.854052782058716
32.312299370765686
34.09702980518341
32.94627404212952
30.25638222694397
24.00762277841568
28.190735936164856
25.196188628673553
26.082797467708588
20.046461522579193
26.923079669475555
20.946781635284424
23.686493515968323
32.16259479522705
34.17386531829834
34.61323547363281
24.070926904678345
26.04299885034561
26.429551005363464
26.271874248981476
25.174132883548737
23.647926151752472
21.984850645065308
27.99686574935913
22.408361554145813
29.464431881904602
28.796073973178864
22.554911255836487
25.689913153648376
25.785478711128235
25.790068447589874
21.91448414325714
31.94982075691223
23.174268126487732
27.69464898109436
23.639793753623962
20.233707189559937
17.010699331760406
18.46307009458542
22.883384823799133
20.860525012016296
21.19056063890457
27.34280264377594
24.73546540737152
34.25639462471008
22.355520963668823
22.30549782514572
32.82767570018768
31.36617112159729
21.601736664772034
25.863082766532898
22.581197381019592
24.00263160467148
26.34338629245758
26.181337356567383
19.538511335849762
20.79525315761566
24.387201964855194
28.44754159450531
26.054019570350647
33.93120402097702
28.663689255714417
27.5579833984375
15.725560247898102
22.097576916217804
27.42041367292404
22.17462593317032
21.889232456684113
20.86155915260315
21.70236212015152
31.45520567893982
32.60243225097656
24.774357795715332
23.17535102367401
21.57148379087448
26.61820524930954
24.239496111869812
27.254553973674774
25.364404380321503
22.51125580072403
21.076049745082855
24.87424236536026
23.218833684921265
21.087902784347534
20.84684681892395
19.988082110881805
21.201588928699493
22.06896561384201
19.84685629606247
17.55879718065262
23.336100220680237
24.689702451229095
26.66139781475067
25.788167536258698
26.345540463924408
24.881928622722626
21.555753469467163
20.177416265010834
22.99870413541794
26.57741779088974
29.668609619140625
23.377946436405182
21.654183983802795
22.44074583053589
23.789440274238586
28.027091801166534
32.09802031517029
28.052399933338165
21.23937678337097
26.226553559303284
24.542512595653534
30.990007400512695
27.764153122901917
20.771678566932678
22.296627283096313
25.16453367471695
21.218497574329376
25.41479080915451
25.15355360507965
27.67177653312683
28.945425152778625
22.463068425655365
18.662077963352203
18.63439518213272
27.176683127880096
18.005027532577515
25.013449490070343
28.99395078420639
28.1836479306221
21.48528927564621
23.794057726860046
23.93570750951767
21.34732848405838
24.47674548625946
24.885445654392242
23.63603013753891
23.401313960552216
23.479668140411377
29.128105401992798
23.82742339372635
29.243608355522156
23.77058070898056
23.89929562807083
21.976598739624023
28.115461468696594
24.321125388145447
23.644141674041748
22.107975721359253
31.408422350883484
21.827360570430756
22.599315464496613
21.98126608133316
17.31291738152504
18.248439490795135
27.96816849708557
23.74251526594162
17.66237461566925
26.9871928691864
26.59150230884552
27.52423393726349
26.981273651123047
22.5483700633049
28.409449756145477
31.040177702903748
31.01802361011505
25.51619952917099
29.09319680929184
14.114152669906616
23.0750589966774
28.64084231853485
25.430781304836273
28.818597316741943
26.33351904153824
21.83496117591858
25.621233701705933
22.25428557395935
28.359953463077545
30.391475439071655
27.544754028320312
26.53962355852127
15.387593984603882
29.272050619125366
18.223359048366547
25.220707297325134
29.32269912958145
26.347330391407013
25.0487242937088
29.477238655090332
28.313334107398987
26.12202137708664
21.130339682102203
25.75350856781006
22.652430713176727
22.842452108860016
22.671953678131104
25.569549322128296
23.69675213098526
24.32369101047516
23.793494760990143
23.243208944797516
19.799099266529083
20.497501611709595
26.651714861392975
20.98124372959137
24.2883180975914
26.79291409254074
30.91404563188553
22.971710205078125
26.654260277748108
17.89508706331253
15.678408831357956
26.629170894622803
26.65864771604538
26.99808371067047
23.28739619255066
24.64330494403839
25.581794321537018
15.165476024150848
22.3145769238472
22.41782647371292
23.57894629240036
25.114822030067444
28.12475097179413
24.034516096115112
21.53916734457016
24.130186855793
19.604437172412872
30.90185296535492
24.602257788181305
21.15022963285446
28.393481016159058
27.111293256282806
23.813774943351746
23.372983753681183
23.861609756946564
24.15607041120529
25.47294443845749
22.125166416168213
20.670406579971313
17.867179334163666
20.271482229232788
21.787386119365692
26.643581986427307
24.88492041826248
29.818215012550354
23.692616045475006
20.22886687517166
26.18767523765564
26.820657670497894
26.558096945285797
26.134845972061157
24.445118963718414
22.809653639793396
21.612996578216553
26.706872701644897
27.982673346996307
20.96614509820938
16.153563618659973
23.623453319072723
26.25287824869156
20.890962302684784
31.003493428230286
26.761586844921112
26.1588077545166
30.549421906471252
22.18675410747528
22.12162572145462
24.31185805797577
23.55711930990219
25.00471669435501
23.83630472421646
26.248282432556152
27.42741948366165
26.058483004570007
22.97548621892929
22.817183256149292
22.744331300258636
23.633455514907837
20.0727561712265
24.078217089176178
26.163818180561066
32.62961459159851
26.980024755001068
22.486389696598053
24.66300195455551
24.015526115894318
22.854184925556183
25.728163421154022
19.208411931991577
23.00723159313202
19.146291315555573
21.384229600429535
21.323027908802032
23.30379694700241
21.116390705108643
20.063199877738953
22.13668167591095
26.350484430789948
23.34429579973221
24.353393375873566
22.684493601322174
21.464624106884003
26.77775204181671
23.475705206394196
27.706613779067993
19.54966700077057
22.967902719974518
20.49467831850052
25.22156709432602
27.75583189725876
26.198575973510742
24.452625334262848
27.629244089126587
19.910367906093597
28.18277609348297
27.102888703346252
21.005607664585114
26.911104023456573
25.97168719768524
22.371152698993683
27.91595435142517
21.9380664229393
27.233815014362335
24.033245265483856
18.195402681827545
27.20432722568512
26.498060882091522
26.843976736068726
19.57025521993637
23.345733404159546
26.909574151039124
24.059471487998962
23.00482350587845
21.95123690366745
27.208279013633728
23.346457481384277
22.535564124584198
25.547672629356384
18.625748336315155
22.35155874490738
17.981085240840912
23.589905202388763
26.194697856903076
19.535656690597534
19.116433560848236
19.401290953159332
24.213597774505615
27.59562051296234
25.51456570625305
18.430798828601837
21.06576007604599
27.93599843978882
21.47057068347931
23.88997358083725
24.24222218990326
30.608492732048035
23.797871708869934
18.760400414466858
20.279996275901794
17.326199293136597
20.745558321475983
20.108956813812256
24.728388011455536
23.55893176794052
20.168911933898926
22.47941941022873
20.411857545375824
22.347869515419006
23.684112668037415
22.60514271259308
23.35615175962448
19.382131814956665
25.14071273803711
26.092687368392944
21.09128051996231
20.85048508644104
19.303498804569244
22.851845681667328
19.452747523784637
26.111556589603424
22.474819123744965
27.041719913482666
20.97017937898636
26.276579678058624
25.55049592256546
24.70981675386429
24.745022118091583
26.44319385290146
26.132821440696716
21.086820900440216
21.95250141620636
22.091262578964233
27.80395394563675
26.27156776189804
26.077500820159912
27.841591596603394
24.08548390865326
21.765850603580475
22.702832281589508
23.423020362854004
21.79657530784607
26.962523460388184
26.287456929683685
23.11499285697937
19.233739376068115
18.93690186738968
21.24106514453888
21.433454871177673
21.284093141555786
20.703188180923462
26.286762297153473
22.09955734014511
23.6068874001503
24.084149956703186
26.035666286945343
21.684877455234528
22.162507951259613
35.61019116640091
23.601799368858337
23.96261876821518
32.589051604270935
21.39609932899475
36.08007597923279
25.981070637702942
29.500304758548737
34.882101595401764
34.1629353761673
40.632293343544006
37.12537634372711
26.12186288833618
33.65615075826645
33.307537376880646
29.09923803806305
22.84550017118454
32.13328629732132
28.599625527858734
32.23478192090988
31.394287824630737
36.71747422218323
24.993443191051483
23.708035051822662
23.310237407684326
25.248833298683167
23.374923765659332
28.62195897102356
22.99848437309265
24.805989623069763
23.36357343196869
22.855342984199524
24.265221178531647
22.57401406764984
23.0449281334877
29.257063031196594
29.668729782104492
23.14544314146042
28.058236062526703
26.884191513061523
24.491811394691467
45.230706214904785
25.4450004696846
27.51065242290497
31.71356689929962
24.234389543533325
23.07775491476059
27.748860955238342
24.980010449886322
23.203893303871155
19.2312490940094
30.253214120864868
29.180224418640137
24.128826677799225
28.399219572544098
35.84582781791687
29.84068191051483
25.57177698612213
27.83690708875656
23.55897969007492
23.410161077976227
25.90606778860092
24.372545421123505
29.783663392066956
28.607865512371063
29.320793390274048
26.790275156497955
27.743026554584503
24.809947192668915
30.63559252023697
27.996413588523865
30.167589962482452
28.06099969148636
28.170125126838684
32.115085542201996
26.522089898586273
29.489554345607758
30.314806938171387
32.977589190006256
30.994531571865082
34.44846260547638
23.727127373218536
25.417640507221222
31.459248781204224
27.965111255645752
31.102975845336914
29.195803582668304
17.046268820762634
28.612253665924072
32.50649857521057
30.220145344734192
28.786794185638428
28.43495386838913
30.327647030353546
31.831618189811707
30.39338707923889
32.783029079437256
31.01848340034485
31.039037346839905
30.142411947250366
35.118298172950745
30.77658450603485
31.854573845863342
33.87154841423035
35.0447815656662
29.649596571922302
30.960384845733643
30.093486070632935
28.649749636650085
30.583375573158264
28.474169850349426
33.09073853492737
29.625667333602905
31.851707696914673
27.92009788751602
32.91739273071289
32.23330783843994
28.86552369594574
32.31975710391998
29.411517560482025
28.32562828063965
31.5709046125412
27.07303911447525
34.08786070346832
27.033054292201996
33.404003620147705
32.74690318107605
33.34572720527649
33.214404702186584
32.80846905708313
32.71689450740814
29.986262559890747
38.79339611530304
35.35785973072052
35.935457706451416
35.31967079639435
36.20395350456238
30.786130905151367
35.09312403202057
30.837364315986633
21.43429982662201
25.18564134836197
27.413178741931915
31.594918131828308
37.209123492240906
29.574393153190613
35.04963445663452
31.64479386806488
36.604907751083374
